###   Wavelength (A)        Transmission
    2.0004663860E+04    2.1850816475E-10
    2.0020744780E+04    1.8206754100E-10
    2.0036825700E+04    1.5191957162E-10
    2.0052906620E+04    1.2682781120E-10
    2.0068987540E+04    1.0583144114E-10
    2.0085068460E+04    8.8836889275E-11
    2.0101149380E+04    7.4499110660E-11
    2.0117230300E+04    6.2318594215E-11
    2.0133311220E+04    5.2750093741E-11
    2.0149392140E+04    4.4825367041E-11
    2.0165473060E+04    3.7355845151E-11
    2.0181553980E+04    3.1500233321E-11
    2.0197634900E+04    2.6523329979E-11
    2.0213715820E+04    2.2725855100E-11
    2.0229796740E+04    1.9489411965E-11
    2.0245877660E+04    1.6590006150E-11
    2.0261958580E+04    1.4467016090E-11
    2.0278039490E+04    1.2739930201E-11
    2.0294120410E+04    1.1338129952E-11
    2.0310201330E+04    1.0164590236E-11
    2.0326282250E+04    9.1508570170E-12
    2.0342363170E+04    8.2263228516E-12
    2.0358444090E+04    7.6114805578E-12
    2.0374525010E+04    6.9891772220E-12
    2.0390605930E+04    6.2974221020E-12
    2.0406686850E+04    5.7842573236E-12
    2.0422767770E+04    5.4011012315E-12
    2.0438848690E+04    4.9804884920E-12
    2.0454929610E+04    4.5194730051E-12
    2.0471010530E+04    4.1098907365E-12
    2.0487091450E+04    3.8527767286E-12
    2.0503172370E+04    3.7513969313E-12
    2.0519253290E+04    3.7122990574E-12
    2.0535334210E+04    3.7977572662E-12
    2.0551415130E+04    3.9739608286E-12
    2.0567496050E+04    4.4441794393E-12
    2.0583576970E+04    5.0668688876E-12
    2.0599657880E+04    5.6149439853E-12
    2.0615738800E+04    5.8837849524E-12
    2.0631819720E+04    5.9899560882E-12
    2.0647900640E+04    6.1662214348E-12
    2.0663981560E+04    6.2200624503E-12
    2.0680062480E+04    5.9513712182E-12
    2.0696143400E+04    5.5022549380E-12
    2.0712224320E+04    5.1771445145E-12
    2.0728305240E+04    5.5107164787E-12
    2.0744386160E+04    5.9396095177E-12
    2.0760467080E+04    6.5611106815E-12
    2.0776548000E+04    7.4789484849E-12
    2.0792628920E+04    8.9508711062E-12
    2.0808709840E+04    1.0622611658E-11
    2.0824790760E+04    1.2422293585E-11
    2.0840871680E+04    1.4228764174E-11
    2.0856952600E+04    1.5442334898E-11
    2.0873033520E+04    1.7866465593E-11
    2.0889114440E+04    2.1744117184E-11
    2.0905195360E+04    2.5784405296E-11
    2.0921276270E+04    2.9698957897E-11
    2.0937357190E+04    3.5651168396E-11
    2.0953438110E+04    4.4519021185E-11
    2.0969519030E+04    5.1459912884E-11
    2.0985599950E+04    5.7332885710E-11
    2.1001680870E+04    6.2835937769E-11
    2.1017761790E+04    6.7816059623E-11
    2.1033842710E+04    7.6407316952E-11
    2.1049923630E+04    8.7311207103E-11
    2.1066004550E+04    9.6876041564E-11
    2.1082085470E+04    1.0152241720E-10
    2.1098166390E+04    1.1502160616E-10
    2.1114247310E+04    1.3588018271E-10
    2.1130328230E+04    1.5701466917E-10
    2.1146409150E+04    1.6835402181E-10
    2.1162490070E+04    1.6865832809E-10
    2.1178570990E+04    1.6442235887E-10
    2.1194651910E+04    1.5940962563E-10
    2.1210732830E+04    1.4917047951E-10
    2.1226813750E+04    1.3566832353E-10
    2.1242894660E+04    1.2063463209E-10
    2.1258975580E+04    1.0756050367E-10
    2.1275056500E+04    9.8443287240E-11
    2.1291137420E+04    8.8477660707E-11
    2.1307218340E+04    7.9464770157E-11
    2.1323299260E+04    7.1400589001E-11
    2.1339380180E+04    7.5451891729E-11
    2.1355461100E+04    8.2865981752E-11
    2.1371542020E+04    9.2042543642E-11
    2.1387622940E+04    9.8495450957E-11
    2.1403703860E+04    1.0197023181E-10
    2.1419784780E+04    1.0766784097E-10
    2.1435865700E+04    1.1534729534E-10
    2.1451946620E+04    1.1977804885E-10
    2.1468027540E+04    1.1403777075E-10
    2.1484108460E+04    1.0641536139E-10
    2.1500189380E+04    1.0089595176E-10
    2.1516270300E+04    1.0401792824E-10
    2.1532351220E+04    1.1017340916E-10
    2.1548432140E+04    1.1489526029E-10
    2.1564513050E+04    1.1707794334E-10
    2.1580593970E+04    1.2057466514E-10
    2.1596674890E+04    1.2678925263E-10
    2.1612755810E+04    1.3103442164E-10
    2.1628836730E+04    1.2795790498E-10
    2.1644917650E+04    1.1441492112E-10
    2.1660998570E+04    9.8505581428E-11
    2.1677079490E+04    8.3896108277E-11
    2.1693160410E+04    7.1728186540E-11
    2.1709241330E+04    5.7568538189E-11
    2.1725322250E+04    4.4846781256E-11
    2.1741403170E+04    3.7352408852E-11
    2.1757484090E+04    3.7749395270E-11
    2.1773565010E+04    5.2075532152E-11
    2.1789645930E+04    6.1764259296E-11
    2.1805726850E+04    6.8076116799E-11
    2.1821807770E+04    7.4841923708E-11
    2.1837888690E+04    9.1717739938E-11
    2.1853969610E+04    1.1564399114E-10
    2.1870050530E+04    1.3800136452E-10
    2.1886131450E+04    1.5637913738E-10
    2.1902212360E+04    1.6209161823E-10
    2.1918293280E+04    1.7868529225E-10
    2.1934374200E+04    2.0614131328E-10
    2.1950455120E+04    2.3783655432E-10
    2.1966536040E+04    2.6104687858E-10
    2.1982616960E+04    2.7403865261E-10
    2.1998697880E+04    2.9236972409E-10
    2.2014778800E+04    3.3806538993E-10
    2.2030859720E+04    4.2581154551E-10
    2.2046940640E+04    5.2856752049E-10
    2.2063021560E+04    6.3809843968E-10
    2.2079102480E+04    7.6367673767E-10
    2.2095183400E+04    9.3733536359E-10
    2.2111264320E+04    1.1735031288E-09
    2.2127345240E+04    1.4335115929E-09
    2.2143426160E+04    1.6786561300E-09
    2.2159507080E+04    1.8795712430E-09
    2.2175588000E+04    2.1356223296E-09
    2.2191668920E+04    2.4785818511E-09
    2.2207749840E+04    2.9073577205E-09
    2.2223830750E+04    3.3887692761E-09
    2.2239911670E+04    3.8343653431E-09
    2.2255992590E+04    4.3104516139E-09
    2.2272073510E+04    4.8668732575E-09
    2.2288154430E+04    5.4480388487E-09
    2.2304235350E+04    5.9232772837E-09
    2.2320316270E+04    6.0814925978E-09
    2.2336397190E+04    6.0229588585E-09
    2.2352478110E+04    6.0078532692E-09
    2.2368559030E+04    6.2051947770E-09
    2.2384639950E+04    6.5616974910E-09
    2.2400720870E+04    6.8722204675E-09
    2.2416801790E+04    7.0885776974E-09
    2.2432882710E+04    7.5043011437E-09
    2.2448963630E+04    8.6383380722E-09
    2.2465044550E+04    1.0432316055E-08
    2.2481125470E+04    1.2478996250E-08
    2.2497206390E+04    1.4739673939E-08
    2.2513287310E+04    1.7300802856E-08
    2.2529368230E+04    2.0301495006E-08
    2.2545449140E+04    2.4190093962E-08
    2.2561530060E+04    2.8760687178E-08
    2.2577610980E+04    3.3634991119E-08
    2.2593691900E+04    3.8172280159E-08
    2.2609772820E+04    4.2465338674E-08
    2.2625853740E+04    4.7252358842E-08
    2.2641934660E+04    5.3089454715E-08
    2.2658015580E+04    5.8874928946E-08
    2.2674096500E+04    6.1666204080E-08
    2.2690177420E+04    6.1274768304E-08
    2.2706258340E+04    6.0326058747E-08
    2.2722339260E+04    6.0957553558E-08
    2.2738420180E+04    6.2501995127E-08
    2.2754501100E+04    6.2107257304E-08
    2.2770582020E+04    5.9554118173E-08
    2.2786662940E+04    5.7759340273E-08
    2.2802743860E+04    5.9454468812E-08
    2.2818824780E+04    6.4439253781E-08
    2.2834905700E+04    7.0560342025E-08
    2.2850986620E+04    7.9081436632E-08
    2.2867067530E+04    8.3514972364E-08
    2.2883148450E+04    8.7021472715E-08
    2.2899229370E+04    9.1551271950E-08
    2.2915310290E+04    9.7846542859E-08
    2.2931391210E+04    1.0655590619E-07
    2.2947472130E+04    1.1308772038E-07
    2.2963553050E+04    1.1558421839E-07
    2.2979633970E+04    1.1218791582E-07
    2.2995714890E+04    1.2046847620E-07
    2.3011795810E+04    1.4068050312E-07
    2.3027876730E+04    1.6379328181E-07
    2.3043957650E+04    1.8368667876E-07
    2.3060038570E+04    1.9955783669E-07
    2.3076119490E+04    2.2384011162E-07
    2.3092200410E+04    2.6072407013E-07
    2.3108281330E+04    3.1394939989E-07
    2.3124362250E+04    3.7912251762E-07
    2.3140443170E+04    4.4974609224E-07
    2.3156524090E+04    5.2294319875E-07
    2.3172605010E+04    6.1402648521E-07
    2.3188685920E+04    7.3188368982E-07
    2.3204766840E+04    8.8340049831E-07
    2.3220847760E+04    1.0825652932E-06
    2.3236928680E+04    1.1820201951E-06
    2.3253009600E+04    1.2026466223E-06
    2.3269090520E+04    1.1607835814E-06
    2.3285171440E+04    1.1895144158E-06
    2.3301252360E+04    1.3531803044E-06
    2.3317333280E+04    1.4663369576E-06
    2.3333414200E+04    1.4690272689E-06
    2.3349495120E+04    1.3255119033E-06
    2.3365576040E+04    1.3758021160E-06
    2.3381656960E+04    1.4807882330E-06
    2.3397737880E+04    1.6179214041E-06
    2.3413818800E+04    1.7044190272E-06
    2.3429899720E+04    1.6141874223E-06
    2.3445980640E+04    1.5701065790E-06
    2.3462061560E+04    1.5902414422E-06
    2.3478142480E+04    1.6981973684E-06
    2.3494223400E+04    1.9352725352E-06
    2.3510304310E+04    2.3708111345E-06
    2.3526385230E+04    2.6259764653E-06
    2.3542466150E+04    2.6373641356E-06
    2.3558547070E+04    2.5210108256E-06
    2.3574627990E+04    2.4861329666E-06
    2.3590708910E+04    2.5812713378E-06
    2.3606789830E+04    2.7246833678E-06
    2.3622870750E+04    2.5625990301E-06
    2.3638951670E+04    2.0890165137E-06
    2.3655032590E+04    1.7675888110E-06
    2.3671113510E+04    1.7618836495E-06
    2.3687194430E+04    1.9343218664E-06
    2.3703275350E+04    2.0595057832E-06
    2.3719356270E+04    2.0429383066E-06
    2.3735437190E+04    1.9307834088E-06
    2.3751518110E+04    2.0600209857E-06
    2.3767599030E+04    2.2907723325E-06
    2.3783679950E+04    2.5823417257E-06
    2.3799760870E+04    2.9233957567E-06
    2.3815841790E+04    3.3529834254E-06
    2.3831922710E+04    3.5167400697E-06
    2.3848003620E+04    3.4732949008E-06
    2.3864084540E+04    3.3110126874E-06
    2.3880165460E+04    3.1585953981E-06
    2.3896246380E+04    3.0853043874E-06
    2.3912327300E+04    3.5348657392E-06
    2.3928408220E+04    3.7371176200E-06
    2.3944489140E+04    3.6768111777E-06
    2.3960570060E+04    3.8527508202E-06
    2.3976650980E+04    4.3464044930E-06
    2.3992731900E+04    5.0848289835E-06
    2.4008812820E+04    5.6564860267E-06
    2.4024893740E+04    5.9509635905E-06
    2.4040974660E+04    5.5625146635E-06
    2.4057055580E+04    5.2869077051E-06
    2.4073136500E+04    5.1119761014E-06
    2.4089217420E+04    4.9793166130E-06
    2.4105298340E+04    4.7883740537E-06
    2.4121379260E+04    4.5450173779E-06
    2.4137460180E+04    4.4384315401E-06
    2.4153541100E+04    4.2215011949E-06
    2.4169622010E+04    3.9640746230E-06
    2.4185702930E+04    3.7263982373E-06
    2.4201783850E+04    3.6235491871E-06
    2.4217864770E+04    3.7494668564E-06
    2.4233945690E+04    3.6972248164E-06
    2.4250026610E+04    3.3220870147E-06
    2.4266107530E+04    2.8218217109E-06
    2.4282188450E+04    2.6433824343E-06
    2.4298269370E+04    2.7787028772E-06
    2.4314350290E+04    3.5255982331E-06
    2.4330431210E+04    3.8796362144E-06
    2.4346512130E+04    3.7759150415E-06
    2.4362593050E+04    3.6800344763E-06
    2.4378673970E+04    3.8365747718E-06
    2.4394754890E+04    4.1442720737E-06
    2.4410835810E+04    4.4434732511E-06
    2.4426916730E+04    4.6189853273E-06
    2.4442997650E+04    4.2938740369E-06
    2.4459078570E+04    4.3101539744E-06
    2.4475159490E+04    4.4503651749E-06
    2.4491240400E+04    4.6423287867E-06
    2.4507321320E+04    4.8760306141E-06
    2.4523402240E+04    5.3332732925E-06
    2.4539483160E+04    6.1365222962E-06
    2.4555564080E+04    6.8264312727E-06
    2.4571645000E+04    7.0552299736E-06
    2.4587725920E+04    6.9610065759E-06
    2.4603806840E+04    6.9516341468E-06
    2.4619887760E+04    7.1442922684E-06
    2.4635968680E+04    7.4761396782E-06
    2.4652049600E+04    7.1393578195E-06
    2.4668130520E+04    6.2213360948E-06
    2.4684211440E+04    5.2915334818E-06
    2.4700292360E+04    4.7421624090E-06
    2.4716373280E+04    4.4889263839E-06
    2.4732454200E+04    4.4053897521E-06
    2.4748535120E+04    4.2313987531E-06
    2.4764616040E+04    3.8557647587E-06
    2.4780696960E+04    3.9109045737E-06
    2.4796777880E+04    3.9979074417E-06
    2.4812858790E+04    4.0389336842E-06
    2.4828939710E+04    3.9756803527E-06
    2.4845020630E+04    3.9395044452E-06
    2.4861101550E+04    3.8536256075E-06
    2.4877182470E+04    3.9275521308E-06
    2.4893263390E+04    3.4950705436E-06
    2.4909344310E+04    2.9296361063E-06
    2.4925425230E+04    2.4837194296E-06
    2.4941506150E+04    2.2239305680E-06
    2.4957587070E+04    2.2151869735E-06
    2.4973667990E+04    2.3293619625E-06
    2.4989748910E+04    2.3259052083E-06
    2.4997781620E+04    2.1758884354E-06
    2.5011293930E+04    2.7695236010E-06
    2.5024806240E+04    3.4247538951E-06
    2.5038318560E+04    4.2297447463E-06
    2.5051830870E+04    4.9434456159E-06
    2.5065343190E+04    5.3092696740E-06
    2.5078855500E+04    5.5758963393E-06
    2.5092367820E+04    5.5606062262E-06
    2.5105880130E+04    5.4005220109E-06
    2.5119392440E+04    5.1908021421E-06
    2.5132904760E+04    4.9593681017E-06
    2.5146417070E+04    4.3074134834E-06
    2.5159929390E+04    3.9333898776E-06
    2.5173441700E+04    4.0677678898E-06
    2.5186954020E+04    4.1250559011E-06
    2.5200466330E+04    4.2966405189E-06
    2.5213978650E+04    4.2357011027E-06
    2.5227490960E+04    4.0607671871E-06
    2.5241003270E+04    4.0842882521E-06
    2.5254515590E+04    4.2441958597E-06
    2.5268027900E+04    4.0025656159E-06
    2.5281540220E+04    3.7229656230E-06
    2.5295052530E+04    3.4372839086E-06
    2.5308564850E+04    3.2521728680E-06
    2.5322077160E+04    3.4720372964E-06
    2.5335589480E+04    3.9834026294E-06
    2.5349101790E+04    4.1441617989E-06
    2.5362614100E+04    4.3543098333E-06
    2.5376126420E+04    4.5705136847E-06
    2.5389638730E+04    4.5796098302E-06
    2.5403151050E+04    4.5449185703E-06
    2.5416663360E+04    4.7073160462E-06
    2.5430175680E+04    5.1334947614E-06
    2.5443687990E+04    5.2606942213E-06
    2.5457200300E+04    5.3545537662E-06
    2.5470712620E+04    5.2059125644E-06
    2.5484224930E+04    5.2950678634E-06
    2.5497737250E+04    5.7482237761E-06
    2.5511249560E+04    6.3459675933E-06
    2.5524761880E+04    7.0830472167E-06
    2.5538274190E+04    7.3452849523E-06
    2.5551786510E+04    7.3814161864E-06
    2.5565298820E+04    7.4558497550E-06
    2.5578811130E+04    7.5190411936E-06
    2.5592323450E+04    7.8650766349E-06
    2.5605835760E+04    7.4200201828E-06
    2.5619348080E+04    6.7601346996E-06
    2.5632860390E+04    5.8964100959E-06
    2.5646372710E+04    5.0659488607E-06
    2.5659885020E+04    4.2720958684E-06
    2.5673397330E+04    3.6296511995E-06
    2.5686909650E+04    3.6650128904E-06
    2.5700421960E+04    2.8688941260E-06
    2.5713934280E+04    2.5490224285E-06
    2.5727446590E+04    2.4873315012E-06
    2.5740958910E+04    2.0038695807E-06
    2.5754471220E+04    2.0165927127E-06
    2.5767983540E+04    1.8714994251E-06
    2.5781495850E+04    1.7861236428E-06
    2.5795008160E+04    1.5129344219E-06
    2.5808520480E+04    1.7318284055E-06
    2.5822032790E+04    1.7305103685E-06
    2.5835545110E+04    1.7528475479E-06
    2.5849057420E+04    1.7822929795E-06
    2.5862569740E+04    1.4697072683E-06
    2.5876082050E+04    1.5086914329E-06
    2.5889594370E+04    1.5907158168E-06
    2.5903106680E+04    1.4003099327E-06
    2.5916618990E+04    1.3204628034E-06
    2.5930131310E+04    1.4249222012E-06
    2.5943643620E+04    1.0673608384E-06
    2.5957155940E+04    1.0381477235E-06
    2.5970668250E+04    1.1068168799E-06
    2.5984180570E+04    1.2812428311E-06
    2.5997692880E+04    1.0688786710E-06
    2.6011205190E+04    1.1837943124E-06
    2.6024717510E+04    1.2144137033E-06
    2.6038229820E+04    1.4837840690E-06
    2.6051742140E+04    1.7460583013E-06
    2.6065254450E+04    1.7483868730E-06
    2.6078766770E+04    1.7257244745E-06
    2.6092279080E+04    1.4956687797E-06
    2.6105791400E+04    1.6978235511E-06
    2.6119303710E+04    1.7842872551E-06
    2.6132816020E+04    1.5540345650E-06
    2.6146328340E+04    9.9803083647E-07
    2.6159840650E+04    7.2757093025E-07
    2.6173352970E+04    7.2652311431E-07
    2.6186865280E+04    6.8264958975E-07
    2.6200377600E+04    7.5158266696E-07
    2.6213889910E+04    5.5348062613E-07
    2.6227402220E+04    3.3359147109E-07
    2.6240914540E+04    3.3376083642E-07
    2.6254426850E+04    3.3992667383E-07
    2.6267939170E+04    4.3407974842E-07
    2.6281451480E+04    4.9656724030E-07
    2.6294963800E+04    5.0490047695E-07
    2.6308476110E+04    3.1727976060E-07
    2.6321988430E+04    4.2381957275E-07
    2.6335500740E+04    3.8778296869E-07
    2.6349013050E+04    3.8829469034E-07
    2.6362525370E+04    3.8240801655E-07
    2.6376037680E+04    2.8813342229E-07
    2.6389550000E+04    2.2567107267E-07
    2.6403062310E+04    1.1655271576E-07
    2.6416574630E+04    2.4832713646E-07
    2.6430086940E+04    1.4465287025E-07
    2.6443599250E+04    1.4372292420E-07
    2.6457111570E+04    1.4371240687E-07
    2.6470623880E+04    1.4408654319E-07
    2.6484136200E+04    1.4443321060E-07
    2.6497648510E+04    1.4440183300E-07
    2.6511160830E+04    2.2286070177E-07
    2.6524673140E+04    9.1227472162E-08
    2.6538185460E+04    8.3658615792E-08
    2.6551697770E+04    8.3624575820E-08
    2.6565210080E+04    9.2965143603E-08
    2.6578722400E+04    9.2530859910E-08
    2.6592234710E+04    9.2114351610E-08
    2.6605747030E+04    9.2009661547E-08
    2.6619259340E+04    1.3677253170E-08
    2.6632771660E+04    1.3667836577E-08
    2.6646283970E+04    1.3659544249E-08
    2.6659796290E+04    1.3651265691E-08
    2.6673308600E+04    4.3283533936E-09
    2.6686820910E+04    4.3291759412E-09
    2.6700333230E+04    4.3282689611E-09
    2.6713845540E+04    4.3242967474E-09
    2.6727357860E+04    4.3192699845E-09
    2.6740870170E+04    4.3174498143E-09
    2.6754382490E+04    4.3157800173E-09
    2.6767894800E+04    4.3142539435E-09
    2.6781407110E+04    4.3128951382E-09
    2.6794919430E+04    4.3117208412E-09
    2.6808431740E+04    4.3107569573E-09
    2.6821944060E+04    4.3090422263E-09
    2.6835456370E+04    4.3044710762E-09
    2.6848968690E+04    4.3041122539E-09
    2.6862481000E+04    4.3051836922E-09
    2.6875993320E+04    5.4173322040E-09
    2.6889505630E+04    5.4176180175E-09
    2.6903017940E+04    5.4180063159E-09
    2.6916530260E+04    5.4180676872E-09
    2.6930042570E+04    5.4120393445E-09
    2.6943554890E+04    5.4125320822E-09
    2.6957067200E+04    5.4132008939E-09
    2.6970579520E+04    5.4140372439E-09
    2.6984091830E+04    4.3071041495E-09
    2.6997604140E+04    4.3080056160E-09
    2.7011116460E+04    4.3104031952E-09
    2.7024628770E+04    4.3108637698E-09
    2.7038141090E+04    4.3150070107E-09
    2.7051653400E+04    4.3188035509E-09
    2.7065165720E+04    4.3217126145E-09
    2.7078678030E+04    4.3246294444E-09
    2.7092190350E+04    4.3275360914E-09
    2.7105702660E+04    4.3304131726E-09
    2.7119214970E+04    4.3332466782E-09
    2.7132727290E+04    4.3346378461E-09
    2.7146239600E+04    4.3336571806E-09
    2.7159751920E+04    4.3362635820E-09
    2.7173264230E+04    4.3387535735E-09
    2.7186776550E+04    4.3411325697E-09
    2.7200288860E+04    4.3433800418E-09
    2.7213801170E+04    4.3468803548E-09
    2.7227313490E+04    4.3514319529E-09
    2.7240825800E+04    4.3476927877E-09
    2.7254338120E+04    4.3488540559E-09
    2.7267850430E+04    4.3498647389E-09
    2.7281362750E+04    4.3507112219E-09
    2.7294875060E+04    4.3513867361E-09
    2.7308387380E+04    4.3520612612E-09
    2.7321899690E+04    4.3526641431E-09
    2.7335412000E+04    4.3503638950E-09
    2.7348924320E+04    4.3483477978E-09
