###   Wavelength (A)        Transmission
    5.5000000000E+03    3.1858870950E-06
    5.5100000000E+03    2.4746771727E-06
    5.5200000000E+03    3.5824142747E-06
    5.5300000000E+03    4.6558241953E-06
    5.5400000000E+03    5.1167601925E-06
    5.5500000000E+03    5.1044332538E-06
    5.5600000000E+03    4.8942582368E-06
    5.5700000000E+03    5.5844582279E-06
    5.5800000000E+03    6.7314406062E-06
    5.5900000000E+03    7.7546165175E-06
    5.6000000000E+03    8.3332752684E-06
    5.6100000000E+03    8.8436725961E-06
    5.6200000000E+03    8.9920301547E-06
    5.6300000000E+03    8.6861135065E-06
    5.6400000000E+03    8.5944462271E-06
    5.6500000000E+03    8.1601823524E-06
    5.6600000000E+03    7.7060391942E-06
    5.6700000000E+03    6.9191076980E-06
    5.6800000000E+03    6.6113282140E-06
    5.6900000000E+03    6.4579524322E-06
    5.7000000000E+03    6.0785174859E-06
    5.7100000000E+03    6.2552935141E-06
    5.7200000000E+03    7.3754343203E-06
    5.7300000000E+03    8.8627217400E-06
    5.7400000000E+03    9.9240027106E-06
    5.7500000000E+03    1.1877323990E-05
    5.7600000000E+03    1.5981652568E-05
    5.7700000000E+03    2.1041652969E-05
    5.7800000000E+03    2.5856952852E-05
    5.7900000000E+03    3.1565996512E-05
    5.8000000000E+03    3.8899668965E-05
    5.8100000000E+03    4.8346920847E-05
    5.8200000000E+03    6.0970516686E-05
    5.8300000000E+03    8.2841934699E-05
    5.8400000000E+03    1.3378126016E-04
    5.8500000000E+03    2.5352368066E-04
    5.8600000000E+03    4.4145154276E-04
    5.8700000000E+03    5.6282060802E-04
    5.8800000000E+03    5.0330853212E-04
    5.8900000000E+03    3.1673053544E-04
    5.9000000000E+03    1.6152348707E-04
    5.9100000000E+03    8.7707912215E-05
    5.9200000000E+03    5.8770756277E-05
    5.9300000000E+03    4.3342603893E-05
    5.9400000000E+03    3.4915772680E-05
    5.9500000000E+03    3.3320055574E-05
    5.9600000000E+03    3.0617860449E-05
    5.9700000000E+03    3.0966266086E-05
    5.9800000000E+03    3.3209295205E-05
    5.9900000000E+03    3.4178164525E-05
    6.0000000000E+03    3.6722278288E-05
    6.0100000000E+03    4.1007887135E-05
    6.0200000000E+03    4.7804096414E-05
    6.0300000000E+03    5.8463629054E-05
    6.0400000000E+03    7.1333358349E-05
    6.0500000000E+03    8.3055153373E-05
    6.0600000000E+03    9.5670165685E-05
    6.0700000000E+03    1.0714590865E-04
    6.0800000000E+03    1.1054579747E-04
    6.0900000000E+03    1.0699971218E-04
    6.1000000000E+03    9.8752159736E-05
    6.1100000000E+03    8.7602833492E-05
    6.1200000000E+03    7.4355375030E-05
    6.1300000000E+03    6.3244067847E-05
    6.1400000000E+03    5.4158083413E-05
    6.1500000000E+03    4.8546426483E-05
    6.1600000000E+03    4.3929711483E-05
    6.1700000000E+03    4.1677764401E-05
    6.1800000000E+03    4.1489454348E-05
    6.1900000000E+03    3.8937825786E-05
    6.2000000000E+03    3.6297850498E-05
    6.2100000000E+03    3.4676404911E-05
    6.2200000000E+03    3.8935812072E-05
    6.2300000000E+03    4.2102030672E-05
    6.2400000000E+03    4.6895928573E-05
    6.2500000000E+03    5.5645424707E-05
    6.2600000000E+03    6.8714741304E-05
    6.2700000000E+03    8.9773702502E-05
    6.2800000000E+03    1.2598429702E-04
    6.2900000000E+03    1.8549796522E-04
    6.3000000000E+03    2.7715260096E-04
    6.3100000000E+03    3.9196669418E-04
    6.3200000000E+03    4.7686001870E-04
    6.3300000000E+03    4.8219197373E-04
    6.3400000000E+03    4.1070288790E-04
    6.3500000000E+03    3.1929160779E-04
    6.3600000000E+03    2.4811818302E-04
    6.3700000000E+03    2.0695153223E-04
    6.3800000000E+03    1.8644487788E-04
    6.3900000000E+03    1.8051044677E-04
    6.4000000000E+03    1.9078973906E-04
    6.4100000000E+03    2.1110536868E-04
    6.4200000000E+03    2.4025687497E-04
    6.4300000000E+03    2.7063560242E-04
    6.4400000000E+03    2.9533633963E-04
    6.4500000000E+03    2.9907218427E-04
    6.4600000000E+03    2.7295496146E-04
    6.4700000000E+03    2.2784264528E-04
    6.4800000000E+03    1.7862900417E-04
    6.4900000000E+03    1.4195741041E-04
    6.5000000000E+03    1.1547896774E-04
    6.5100000000E+03    9.5166879110E-05
    6.5200000000E+03    8.2222514754E-05
    6.5300000000E+03    7.9228256865E-05
    6.5400000000E+03    7.8443506568E-05
    6.5500000000E+03    8.0890849854E-05
    6.5600000000E+03    8.7623793931E-05
    6.5700000000E+03    1.0312924518E-04
    6.5800000000E+03    1.2181403561E-04
    6.5900000000E+03    1.4697258382E-04
    6.6000000000E+03    1.7744669588E-04
    6.6100000000E+03    2.0855583082E-04
    6.6200000000E+03    2.2012501938E-04
    6.6300000000E+03    2.0974715697E-04
    6.6400000000E+03    1.8780436903E-04
    6.6500000000E+03    1.6502743764E-04
    6.6600000000E+03    1.4197778165E-04
    6.6700000000E+03    1.2231276664E-04
    6.6800000000E+03    1.1313831790E-04
    6.6900000000E+03    1.0830121685E-04
    6.7000000000E+03    1.0718659207E-04
    6.7100000000E+03    1.0801513659E-04
    6.7200000000E+03    1.1976238312E-04
    6.7300000000E+03    1.3890138972E-04
    6.7400000000E+03    1.6492041204E-04
    6.7500000000E+03    1.8933463994E-04
    6.7600000000E+03    2.1307827114E-04
    6.7700000000E+03    2.2776099608E-04
    6.7800000000E+03    2.3307172636E-04
    6.7900000000E+03    2.2290307883E-04
    6.8000000000E+03    1.9920735981E-04
    6.8100000000E+03    1.6558939841E-04
    6.8200000000E+03    1.3975794832E-04
    6.8300000000E+03    1.3035580780E-04
    6.8400000000E+03    1.2600003564E-04
    6.8500000000E+03    1.2092783632E-04
    6.8600000000E+03    1.1716903919E-04
    6.8700000000E+03    1.2060940054E-04
    6.8800000000E+03    1.2709936548E-04
    6.8900000000E+03    1.3196459652E-04
    6.9000000000E+03    1.4191666126E-04
    6.9100000000E+03    1.5146721588E-04
    6.9200000000E+03    1.5240063023E-04
    6.9300000000E+03    1.4498983003E-04
    6.9400000000E+03    1.3437172758E-04
    6.9500000000E+03    1.2087181745E-04
    6.9600000000E+03    1.0362309447E-04
    6.9700000000E+03    9.1597844975E-05
    6.9800000000E+03    8.3730018523E-05
    6.9900000000E+03    7.7708345285E-05
    7.0000000000E+03    7.2083881213E-05
    7.0100000000E+03    6.5527065075E-05
    7.0200000000E+03    6.2095982143E-05
    7.0300000000E+03    6.5493516830E-05
    7.0400000000E+03    7.5795687660E-05
    7.0500000000E+03    8.8447895109E-05
    7.0600000000E+03    1.0451406575E-04
    7.0700000000E+03    1.2268464821E-04
    7.0800000000E+03    1.4587864093E-04
    7.0900000000E+03    1.8442192819E-04
    7.1000000000E+03    2.5625882642E-04
    7.1100000000E+03    3.7568696211E-04
    7.1200000000E+03    5.5517395520E-04
    7.1300000000E+03    8.0039369033E-04
    7.1400000000E+03    1.1301632169E-03
    7.1500000000E+03    1.4685737219E-03
    7.1600000000E+03    1.6677705364E-03
    7.1700000000E+03    1.5713557314E-03
    7.1800000000E+03    1.2647859776E-03
    7.1900000000E+03    9.2080745734E-04
    7.2000000000E+03    6.4969037431E-04
    7.2100000000E+03    4.4815834592E-04
    7.2200000000E+03    3.0914298290E-04
    7.2300000000E+03    2.2909797356E-04
    7.2400000000E+03    1.6741575954E-04
    7.2500000000E+03    1.2738338776E-04
    7.2600000000E+03    1.0187143228E-04
    7.2700000000E+03    8.5804378282E-05
    7.2800000000E+03    6.9220703431E-05
    7.2900000000E+03    5.3526965698E-05
    7.3000000000E+03    4.8955864123E-05
    7.3100000000E+03    4.6545776867E-05
    7.3200000000E+03    4.3994912631E-05
    7.3300000000E+03    4.0215756846E-05
    7.3400000000E+03    4.4229256202E-05
    7.3500000000E+03    4.5975082398E-05
    7.3600000000E+03    4.1497989451E-05
    7.3700000000E+03    4.3590260992E-05
    7.3800000000E+03    5.3436292641E-05
    7.3900000000E+03    6.7330729992E-05
    7.4000000000E+03    7.3970914355E-05
    7.4100000000E+03    9.2407155203E-05
    7.4200000000E+03    1.2181122083E-04
    7.4300000000E+03    1.7541406557E-04
    7.4400000000E+03    2.6171756148E-04
    7.4500000000E+03    3.9771261425E-04
    7.4600000000E+03    5.9360878412E-04
    7.4700000000E+03    8.5166919091E-04
    7.4800000000E+03    1.1183724343E-03
    7.4900000000E+03    1.3121771891E-03
    7.5000000000E+03    1.3913314709E-03
    7.5100000000E+03    1.4434991770E-03
    7.5200000000E+03    1.6908043329E-03
    7.5300000000E+03    2.2826481982E-03
    7.5400000000E+03    2.9436785446E-03
    7.5500000000E+03    2.9374109352E-03
    7.5600000000E+03    2.0810229938E-03
    7.5700000000E+03    1.0257435470E-03
    7.5800000000E+03    4.2120055734E-04
    7.5900000000E+03    2.0680782877E-04
    7.6000000000E+03    1.1779483225E-04
    7.6100000000E+03    6.6539149328E-05
    7.6200000000E+03    3.9793595419E-05
    7.6300000000E+03    3.2308932960E-05
    7.6400000000E+03    2.2417938006E-05
    7.6500000000E+03    1.2631969074E-05
    7.6600000000E+03    1.2149403228E-05
    7.6700000000E+03    1.2969046785E-05
    7.6800000000E+03    1.2707794363E-05
    7.6900000000E+03    8.7020986371E-06
    7.7000000000E+03    9.0404874920E-06
    7.7100000000E+03    7.5495823906E-06
    7.7200000000E+03    9.5321193144E-06
    7.7300000000E+03    9.2132307729E-06
    7.7400000000E+03    4.1460958164E-06
    7.7500000000E+03    5.4201767777E-06
    7.7600000000E+03    7.8395089491E-06
    7.7700000000E+03    1.4286230286E-05
    7.7800000000E+03    5.5532386615E-06
    7.7900000000E+03    6.4500109997E-06
    7.8000000000E+03    9.0149530944E-06
    7.8100000000E+03    1.3316432236E-05
    7.8200000000E+03    7.5772935387E-06
    7.8300000000E+03    1.4635326686E-05
    7.8400000000E+03    1.4638087508E-05
    7.8500000000E+03    1.1298580165E-05
    7.8600000000E+03    9.7324728370E-06
    7.8700000000E+03    1.5168872373E-05
    7.8800000000E+03    2.3544424472E-05
    7.8900000000E+03    4.3521164509E-05
    7.9000000000E+03    8.5095491845E-05
    7.9100000000E+03    1.2930187266E-04
    7.9200000000E+03    1.4944026540E-04
    7.9300000000E+03    1.2262936608E-04
    7.9400000000E+03    8.1688546146E-05
    7.9500000000E+03    5.5129340017E-05
    7.9600000000E+03    4.0818281723E-05
    7.9700000000E+03    0.0000000000E+00
    7.9800000000E+03    2.9229050626E-04
    7.9900000000E+03    8.5326763453E-04
    8.0000000000E+03    1.8158199216E-03
    8.0100000000E+03    1.3408681441E-03
    8.0200000000E+03    1.9985992690E-03
    8.0300000000E+03    1.8003088642E-03
    8.0400000000E+03    1.8395924255E-03
    8.0500000000E+03    3.8539709266E-04
    8.0600000000E+03    1.4775195316E-04
    8.0700000000E+03    6.6687039278E-04
    8.0800000000E+03    1.5188324357E-03
    8.0900000000E+03    1.6820805814E-03
    8.1000000000E+03    8.1857041800E-04
    8.1100000000E+03    1.0374126323E-03
    8.1200000000E+03    9.6660010376E-04
    8.1300000000E+03    1.4052319136E-03
    8.1400000000E+03    1.3381868409E-03
    8.1500000000E+03    1.4943142620E-03
    8.1600000000E+03    1.0457803536E-03
    8.1700000000E+03    1.1735864961E-03
    8.1800000000E+03    1.0903511224E-03
    8.1900000000E+03    8.7927037049E-04
    8.2000000000E+03    1.2179731789E-03
    8.2100000000E+03    1.9762835984E-03
    8.2200000000E+03    1.6526375350E-03
    8.2300000000E+03    4.9366536768E-04
    8.2400000000E+03    0.0000000000E+00
    8.2500000000E+03    2.0866987590E-04
    8.2600000000E+03    1.3098946280E-03
    8.2700000000E+03    1.6177378755E-03
    8.2800000000E+03    7.2240074348E-04
    8.2900000000E+03    4.4911784991E-06
    8.3000000000E+03    4.6867148011E-04
    8.3100000000E+03    9.0198215241E-04
    8.3200000000E+03    1.1618498816E-03
    8.3300000000E+03    1.0200623257E-03
    8.3400000000E+03    9.9429333229E-04
    8.3500000000E+03    9.0537760574E-04
    8.3600000000E+03    9.6267901442E-04
    8.3700000000E+03    8.9489852138E-04
    8.3800000000E+03    1.1185270329E-03
    8.3900000000E+03    1.1558272311E-03
    8.4000000000E+03    9.3134062949E-04
    8.4100000000E+03    7.5929337023E-04
    8.4200000000E+03    9.1270745483E-04
    8.4300000000E+03    8.0089235602E-04
    8.4400000000E+03    6.8916349750E-04
    8.4500000000E+03    6.2217819616E-04
    8.4600000000E+03    7.7830039413E-04
    8.4700000000E+03    1.0743080450E-03
    8.4800000000E+03    1.1863869400E-03
    8.4900000000E+03    8.7730277409E-04
    8.5000000000E+03    7.6583233614E-04
    8.5100000000E+03    9.8323915424E-04
    8.5200000000E+03    1.1372748644E-03
    8.5300000000E+03    1.1592332107E-03
    8.5400000000E+03    1.3486938663E-03
    8.5500000000E+03    9.0256390247E-04
    8.5600000000E+03    5.0642435678E-04
    8.5700000000E+03    3.1552289651E-04
    8.5800000000E+03    8.1504132988E-04
    8.5900000000E+03    1.0186183443E-03
    8.6000000000E+03    1.3720407809E-03
    8.6100000000E+03    9.0130526870E-04
    8.6200000000E+03    7.2005265006E-04
    8.6300000000E+03    5.0376658696E-04
    8.6400000000E+03    9.2513730953E-04
    8.6500000000E+03    9.7824120993E-04
    8.6600000000E+03    1.0913353961E-03
    8.6700000000E+03    6.1965709091E-04
    8.6800000000E+03    7.5583944703E-04
    8.6900000000E+03    1.0153845073E-03
    8.7000000000E+03    1.2164072287E-03
    8.7100000000E+03    9.6153247663E-04
    8.7200000000E+03    1.0865800948E-03
    8.7300000000E+03    1.0912210695E-03
    8.7400000000E+03    9.4659823779E-04
    8.7500000000E+03    9.3588802827E-04
    8.7600000000E+03    1.0421730634E-03
    8.7700000000E+03    1.0689455962E-03
    8.7800000000E+03    1.0046774138E-03
    8.7900000000E+03    9.6349454947E-04
    8.8000000000E+03    8.7320045605E-04
    8.8100000000E+03    7.5693819569E-04
    8.8200000000E+03    7.3335257319E-04
    8.8300000000E+03    7.7492270050E-04
    8.8400000000E+03    6.9319778414E-04
    8.8500000000E+03    5.6781070520E-04
    8.8600000000E+03    6.3299463406E-04
    8.8700000000E+03    7.8883382139E-04
    8.8800000000E+03    6.8316168751E-04
    8.8900000000E+03    5.6236316445E-04
    8.9000000000E+03    7.2030270941E-04
    8.9100000000E+03    8.3600896401E-04
    8.9200000000E+03    8.1520262396E-04
    8.9300000000E+03    8.5573017671E-04
    8.9400000000E+03    9.5296274202E-04
    8.9500000000E+03    9.7997913093E-04
    8.9600000000E+03    9.7200641715E-04
    8.9700000000E+03    9.2065817853E-04
    8.9800000000E+03    9.0082253620E-04
    8.9900000000E+03    9.0333356274E-04
    9.0000000000E+03    9.5531978912E-04
    9.0100000000E+03    1.0552909252E-03
    9.0200000000E+03    1.0880784041E-03
    9.0300000000E+03    1.0545123529E-03
    9.0400000000E+03    1.0068144773E-03
    9.0500000000E+03    9.9875215624E-04
    9.0600000000E+03    8.8500711011E-04
    9.0700000000E+03    7.6559818643E-04
    9.0800000000E+03    7.8806562102E-04
    9.0900000000E+03    8.4248098083E-04
    9.1000000000E+03    7.7314121144E-04
    9.1100000000E+03    6.5259310225E-04
    9.1200000000E+03    6.7695538166E-04
    9.1300000000E+03    8.0367256298E-04
    9.1400000000E+03    7.7116787335E-04
    9.1500000000E+03    6.7246934722E-04
    9.1600000000E+03    5.3941594456E-04
    9.1700000000E+03    4.2878276667E-04
    9.1800000000E+03    4.4337108639E-04
    9.1900000000E+03    5.6562961803E-04
    9.2000000000E+03    6.4016607418E-04
    9.2100000000E+03    6.0214435176E-04
    9.2200000000E+03    5.6970395536E-04
    9.2300000000E+03    6.4462667448E-04
    9.2400000000E+03    7.6162692059E-04
    9.2500000000E+03    8.4678763898E-04
    9.2600000000E+03    8.5387085935E-04
    9.2700000000E+03    9.7863228092E-04
    9.2800000000E+03    1.1157114936E-03
    9.2900000000E+03    1.2357832093E-03
    9.3000000000E+03    1.2691176664E-03
    9.3100000000E+03    1.3590172575E-03
    9.3200000000E+03    1.5360851340E-03
    9.3300000000E+03    1.7019819015E-03
    9.3400000000E+03    1.7860220253E-03
    9.3500000000E+03    1.8334192705E-03
    9.3600000000E+03    1.9343281458E-03
    9.3700000000E+03    2.0600592658E-03
    9.3800000000E+03    2.1612384698E-03
    9.3900000000E+03    2.2459966338E-03
    9.4000000000E+03    2.2788351526E-03
    9.4100000000E+03    2.2822072475E-03
    9.4200000000E+03    2.2847697142E-03
    9.4300000000E+03    2.3202994222E-03
    9.4400000000E+03    2.2810940109E-03
    9.4500000000E+03    2.2330674025E-03
    9.4600000000E+03    2.1727320184E-03
    9.4700000000E+03    2.1025725478E-03
    9.4800000000E+03    2.0097620705E-03
    9.4900000000E+03    1.9344743161E-03
    9.5000000000E+03    1.8529908787E-03
    9.5100000000E+03    1.7641951536E-03
    9.5200000000E+03    1.7151677992E-03
    9.5300000000E+03    1.6485778215E-03
    9.5400000000E+03    1.5478768285E-03
    9.5500000000E+03    1.4873254823E-03
    9.5600000000E+03    1.4506119494E-03
    9.5700000000E+03    1.4041833627E-03
    9.5800000000E+03    1.3556861495E-03
    9.5900000000E+03    1.3458079556E-03
    9.6000000000E+03    1.3344061372E-03
    9.6100000000E+03    1.3673037497E-03
    9.6200000000E+03    1.4526372137E-03
    9.6300000000E+03    1.5585576624E-03
    9.6400000000E+03    1.6204036515E-03
    9.6500000000E+03    1.7342424415E-03
    9.6600000000E+03    1.9037764518E-03
    9.6700000000E+03    2.1075007291E-03
    9.6800000000E+03    2.3272964648E-03
    9.6900000000E+03    2.6228931880E-03
    9.7000000000E+03    3.0390570918E-03
    9.7100000000E+03    3.5107736455E-03
    9.7200000000E+03    4.0691659493E-03
    9.7300000000E+03    4.7659514586E-03
    9.7400000000E+03    5.6303664381E-03
    9.7500000000E+03    6.6090094716E-03
    9.7600000000E+03    7.8646833418E-03
    9.7700000000E+03    9.3483921776E-03
    9.7800000000E+03    1.1117509391E-02
    9.7900000000E+03    1.3142005136E-02
    9.8000000000E+03    1.5722451276E-02
    9.8100000000E+03    1.8550072785E-02
    9.8200000000E+03    2.1894135953E-02
    9.8300000000E+03    2.5661846634E-02
    9.8400000000E+03    2.9943093096E-02
    9.8500000000E+03    3.5038694991E-02
    9.8600000000E+03    4.0386391713E-02
    9.8700000000E+03    4.6199094142E-02
    9.8800000000E+03    5.2389861470E-02
    9.8900000000E+03    5.9761354448E-02
    9.9000000000E+03    6.7464732263E-02
    9.9100000000E+03    7.5411477394E-02
    9.9200000000E+03    8.4827417429E-02
    9.9300000000E+03    9.3914164170E-02
    9.9400000000E+03    1.0298172942E-01
    9.9500000000E+03    1.1190103518E-01
    9.9600000000E+03    1.2272182838E-01
    9.9700000000E+03    1.3334037419E-01
    9.9800000000E+03    1.4403014827E-01
    9.9900000000E+03    1.5467002965E-01
    1.0000000000E+04    1.6433412282E-01
    1.0010000000E+04    1.7374045987E-01
    1.0020000000E+04    1.8324843222E-01
    1.0030000000E+04    1.9289430406E-01
    1.0040000000E+04    2.0257974292E-01
    1.0050000000E+04    2.1123893227E-01
    1.0060000000E+04    2.1923517380E-01
    1.0070000000E+04    2.2560121410E-01
    1.0080000000E+04    2.3251892547E-01
    1.0090000000E+04    2.3880911647E-01
    1.0100000000E+04    2.4490244220E-01
    1.0110000000E+04    2.5131427550E-01
    1.0120000000E+04    2.5756967119E-01
    1.0130000000E+04    2.6291082460E-01
    1.0140000000E+04    2.6756842762E-01
    1.0150000000E+04    2.7206111293E-01
    1.0160000000E+04    2.7509024540E-01
    1.0170000000E+04    2.7824893761E-01
    1.0180000000E+04    2.8201138630E-01
    1.0190000000E+04    2.8590734193E-01
    1.0200000000E+04    2.8950467084E-01
    1.0210000000E+04    2.9283011028E-01
    1.0220000000E+04    2.9601979394E-01
    1.0230000000E+04    2.9754019754E-01
    1.0240000000E+04    2.9941904182E-01
    1.0250000000E+04    3.0036592640E-01
    1.0260000000E+04    3.0137931821E-01
    1.0270000000E+04    3.0248028547E-01
    1.0280000000E+04    3.0405317832E-01
    1.0290000000E+04    3.0563112580E-01
    1.0300000000E+04    3.0619737879E-01
    1.0310000000E+04    3.0674777664E-01
    1.0320000000E+04    3.0733154204E-01
    1.0330000000E+04    3.0746216510E-01
    1.0340000000E+04    3.0797728656E-01
    1.0350000000E+04    3.0832488633E-01
