###   Wavelength (A)        Transmission
    2.0004663860E+04    3.3212987145E-15
    2.0020744780E+04    2.9363296169E-16
    2.0036825700E+04    1.0354669765E-16
    2.0052906620E+04    4.6426613172E-16
    2.0068987540E+04    3.2231800358E-15
    2.0085068460E+04    3.7154355284E-15
    2.0101149380E+04    4.9306829809E-15
    2.0117230300E+04    8.7263739553E-15
    2.0133311220E+04    1.4755097877E-14
    2.0149392140E+04    2.2807447034E-14
    2.0165473060E+04    3.0881939806E-14
    2.0181553980E+04    3.6206483770E-14
    2.0197634900E+04    3.9974016342E-14
    2.0213715820E+04    4.2424616095E-14
    2.0229796740E+04    4.2611940198E-14
    2.0245877660E+04    4.0271345908E-14
    2.0261958580E+04    3.9437141016E-14
    2.0278039490E+04    3.9291643663E-14
    2.0294120410E+04    3.7977250939E-14
    2.0310201330E+04    3.6085479513E-14
    2.0326282250E+04    3.4793771748E-14
    2.0342363170E+04    3.3440550983E-14
    2.0358444090E+04    3.2461664623E-14
    2.0374525010E+04    3.1543828793E-14
    2.0390605930E+04    2.7910304809E-14
    2.0406686850E+04    2.3925584519E-14
    2.0422767770E+04    1.8054415170E-14
    2.0438848690E+04    1.2973630891E-14
    2.0454929610E+04    6.8573460540E-15
    2.0471010530E+04    3.2328726032E-15
    2.0487091450E+04    2.2515172147E-15
    2.0503172370E+04    1.8637196341E-15
    2.0519253290E+04    4.3327293785E-16
    2.0535334210E+04    1.2097683825E-16
    2.0551415130E+04    1.2098044563E-16
    2.0567496050E+04    3.3707191111E-16
    2.0583576970E+04    4.8763323472E-16
    2.0599657880E+04    3.9418958647E-16
    2.0615738800E+04    2.1805328739E-16
    2.0631819720E+04    1.0859595300E-16
    2.0647900640E+04    1.5795881794E-16
    2.0663981560E+04    5.9901380996E-16
    2.0680062480E+04    2.2777440167E-16
    2.0696143400E+04    7.8126364315E-18
    2.0712224320E+04    9.8842784276E-18
    2.0728305240E+04    4.4725289816E-16
    2.0744386160E+04    1.6852564064E-15
    2.0760467080E+04    4.9855864344E-16
    2.0776548000E+04    4.1803352047E-16
    2.0792628920E+04    1.3801377487E-15
    2.0808709840E+04    3.3709547175E-15
    2.0824790760E+04    2.7798046563E-15
    2.0840871680E+04    2.3868253442E-15
    2.0856952600E+04    2.4316428658E-15
    2.0873033520E+04    3.1729775047E-15
    2.0889114440E+04    5.5153692052E-15
    2.0905195360E+04    7.9112197994E-15
    2.0921276270E+04    2.1677907743E-15
    2.0937357190E+04    1.1180925638E-15
    2.0953438110E+04    3.1971833841E-15
    2.0969519030E+04    1.2568615429E-14
    2.0985599950E+04    6.9119538387E-15
    2.1001680870E+04    4.2625709536E-15
    2.1017761790E+04    6.9505837239E-15
    2.1033842710E+04    1.8373622206E-14
    2.1049923630E+04    2.2440772218E-14
    2.1066004550E+04    2.0458102170E-14
    2.1082085470E+04    2.1589651188E-14
    2.1098166390E+04    2.5360591525E-14
    2.1114247310E+04    3.1262148212E-14
    2.1130328230E+04    3.4923808620E-14
    2.1146409150E+04    2.0426139380E-14
    2.1162490070E+04    5.5569140929E-15
    2.1178570990E+04    3.6356000744E-15
    2.1194651910E+04    1.4654484145E-14
    2.1210732830E+04    1.0010688012E-13
    2.1226813750E+04    2.7771729941E-15
    2.1242894660E+04    7.5811442424E-17
    2.1258975580E+04    7.0435717864E-16
    2.1275056500E+04    2.0157601418E-14
    2.1291137420E+04    2.9837489405E-14
    2.1307218340E+04    1.8595867393E-14
    2.1323299260E+04    1.9924059202E-14
    2.1339380180E+04    3.5550016165E-14
    2.1355461100E+04    6.3993713199E-14
    2.1371542020E+04    6.1377017548E-14
    2.1387622940E+04    5.2473720830E-14
    2.1403703860E+04    2.8326565536E-14
    2.1419784780E+04    1.8140233608E-14
    2.1435865700E+04    2.5369087360E-14
    2.1451946620E+04    4.4285214057E-14
    2.1468027540E+04    1.7326718882E-14
    2.1484108460E+04    6.1869373796E-15
    2.1500189380E+04    5.9793405180E-15
    2.1516270300E+04    1.4177582121E-14
    2.1532351220E+04    1.2744718120E-14
    2.1548432140E+04    4.8105893239E-16
    2.1564513050E+04    4.0130905771E-17
    2.1580593970E+04    9.6579444664E-16
    2.1596674890E+04    2.5213140642E-14
    2.1612755810E+04    2.6634268689E-14
    2.1628836730E+04    1.9140331801E-14
    2.1644917650E+04    8.1138566559E-15
    2.1660998570E+04    3.2989657516E-15
    2.1677079490E+04    2.8519257295E-15
    2.1693160410E+04    7.4021297536E-15
    2.1709241330E+04    1.6678154443E-14
    2.1725322250E+04    8.4381524929E-16
    2.1741403170E+04    4.4202455227E-17
    2.1757484090E+04    6.3940239358E-16
    2.1773565010E+04    1.7823298741E-14
    2.1789645930E+04    7.3848389926E-15
    2.1805726850E+04    2.8813209749E-16
    2.1821807770E+04    1.2132384034E-16
    2.1837888690E+04    2.9500808860E-15
    2.1853969610E+04    5.1901193583E-14
    2.1870050530E+04    3.7192461262E-14
    2.1886131450E+04    3.3986271027E-14
    2.1902212360E+04    3.3251967122E-14
    2.1918293280E+04    3.6092160374E-14
    2.1934374200E+04    5.2397066224E-14
    2.1950455120E+04    6.2400262614E-14
    2.1966536040E+04    4.0008138651E-14
    2.1982616960E+04    1.9415684887E-15
    2.1998697880E+04    9.5934127541E-17
    2.2014778800E+04    1.2863123767E-15
    2.2030859720E+04    3.6476915633E-14
    2.2046940640E+04    2.5928326111E-14
    2.2063021560E+04    1.0979403470E-15
    2.2079102480E+04    2.1629985747E-16
    2.2095183400E+04    5.3218543039E-15
    2.2111264320E+04    1.3148694045E-13
    2.2127345240E+04    1.2356688738E-14
    2.2143426160E+04    6.4831151114E-16
    2.2159507080E+04    3.9127448806E-16
    2.2175588000E+04    3.9362493408E-15
    2.2191668920E+04    3.7819567943E-14
    2.2207749840E+04    9.2119316119E-14
    2.2223830750E+04    2.5493518959E-13
    2.2239911670E+04    1.9461520987E-13
    2.2255992590E+04    1.3421217495E-13
    2.2272073510E+04    1.4991644328E-13
    2.2288154430E+04    3.0352839060E-13
    2.2304235350E+04    8.4623467489E-13
    2.2320316270E+04    1.5059729644E-13
    2.2336397190E+04    4.6989651999E-14
    2.2352478110E+04    9.2089587879E-14
    2.2368559030E+04    4.3112216926E-13
    2.2384639950E+04    9.2781071552E-13
    2.2400720870E+04    2.7107733349E-13
    2.2416801790E+04    1.1486600066E-13
    2.2432882710E+04    1.0149633720E-13
    2.2448963630E+04    1.4422614845E-13
    2.2465044550E+04    2.0840209492E-13
    2.2481125470E+04    2.0069809717E-13
    2.2497206390E+04    1.7344531924E-13
    2.2513287310E+04    2.7397256804E-14
    2.2529368230E+04    1.5835443949E-13
    2.2545449140E+04    5.3019039405E-13
    2.2561530060E+04    1.0635901330E-12
    2.2577610980E+04    1.9668550147E-12
    2.2593691900E+04    4.3325699181E-13
    2.2609772820E+04    1.4219180391E-13
    2.2625853740E+04    4.0352093721E-13
    2.2641934660E+04    2.2331871568E-12
    2.2658015580E+04    2.9504372183E-12
    2.2674096500E+04    1.4561124879E-13
    2.2690177420E+04    7.8483084626E-15
    2.2706258340E+04    4.9816616379E-14
    2.2722339260E+04    7.8512107409E-13
    2.2738420180E+04    2.0880782885E-12
    2.2754501100E+04    9.5739076905E-13
    2.2770582020E+04    5.9174506189E-13
    2.2786662940E+04    7.7795206206E-14
    2.2802743860E+04    1.3488165474E-14
    2.2818824780E+04    2.8018932108E-14
    2.2834905700E+04    4.3991604333E-13
    2.2850986620E+04    7.2196687458E-12
    2.2867067530E+04    2.9081518395E-12
    2.2883148450E+04    3.7687845380E-12
    2.2899229370E+04    1.2611434933E-12
    2.2915310290E+04    6.9284230518E-13
    2.2931391210E+04    1.3579792598E-11
    2.2947472130E+04    9.9362509538E-13
    2.2963553050E+04    1.5119972279E-12
    2.2979633970E+04    6.3844165532E-12
    2.2995714890E+04    4.0798980928E-12
    2.3011795810E+04    8.9551261451E-12
    2.3027876730E+04    4.4309387307E-12
    2.3043957650E+04    7.0496626523E-12
    2.3060038570E+04    1.0117851404E-11
    2.3076119490E+04    9.2298008390E-12
    2.3092200410E+04    8.4710245156E-12
    2.3108281330E+04    1.2651015426E-12
    2.3124362250E+04    2.0025028995E-12
    2.3140443170E+04    6.6911558569E-12
    2.3156524090E+04    1.5238707317E-12
    2.3172605010E+04    1.6223392154E-11
    2.3188685920E+04    6.4468748315E-12
    2.3204766840E+04    7.4541064561E-12
    2.3220847760E+04    6.5486973754E-11
    2.3236928680E+04    6.3073192967E-12
    2.3253009600E+04    3.1370908714E-11
    2.3269090520E+04    2.8382053739E-11
    2.3285171440E+04    1.4066643372E-11
    2.3301252360E+04    2.5907278993E-10
    2.3317333280E+04    1.7005473226E-10
    2.3333414200E+04    1.4161183772E-10
    2.3349495120E+04    1.1885128866E-10
    2.3365576040E+04    9.6775832071E-11
    2.3381656960E+04    1.1559025822E-10
    2.3397737880E+04    1.3534405998E-10
    2.3413818800E+04    1.3465889521E-10
    2.3429899720E+04    1.0415548902E-10
    2.3445980640E+04    9.3499321052E-12
    2.3462061560E+04    9.3707419497E-13
    2.3478142480E+04    9.7042630947E-13
    2.3494223400E+04    1.2711301565E-11
    2.3510304310E+04    1.8596135612E-10
    2.3526385230E+04    3.0336672907E-11
    2.3542466150E+04    2.2305195740E-12
    2.3558547070E+04    6.0086140741E-13
    2.3574627990E+04    8.1468343026E-12
    2.3590708910E+04    1.1877071530E-10
    2.3606789830E+04    1.0391895961E-10
    2.3622870750E+04    7.6336837698E-12
    2.3638951670E+04    6.0637620465E-13
    2.3655032590E+04    3.8612945077E-12
    2.3671113510E+04    5.0975397515E-11
    2.3687194430E+04    3.4658328844E-10
    2.3703275350E+04    2.4860133416E-10
    2.3719356270E+04    2.9935085780E-10
    2.3735437190E+04    1.8713127811E-10
    2.3751518110E+04    6.6570816590E-11
    2.3767599030E+04    2.6507523568E-11
    2.3783679950E+04    4.7282940333E-11
    2.3799760870E+04    1.3730996557E-10
    2.3815841790E+04    4.1152789932E-10
    2.3831922710E+04    2.6717515547E-11
    2.3848003620E+04    1.8743771837E-12
    2.3864084540E+04    9.6093078399E-13
    2.3880165460E+04    1.1620593027E-11
    2.3896246380E+04    1.6260530806E-10
    2.3912327300E+04    7.7079145309E-11
    2.3928408220E+04    5.5230325994E-12
    2.3944489140E+04    5.2440562792E-13
    2.3960570060E+04    2.8545540152E-12
    2.3976650980E+04    2.4796777862E-11
    2.3992731900E+04    1.1569836109E-10
    2.4008812820E+04    1.2858284331E-11
    2.4024893740E+04    1.5274508548E-12
    2.4040974660E+04    6.1728648357E-13
    2.4057055580E+04    2.7906991402E-12
    2.4073136500E+04    1.9429927819E-11
    2.4089217420E+04    6.0652968071E-11
    2.4105298340E+04    1.2205247299E-10
    2.4121379260E+04    3.6995224030E-10
    2.4137460180E+04    5.7197941756E-11
    2.4153541100E+04    4.7460654897E-12
    2.4169622010E+04    5.2536108242E-13
    2.4185702930E+04    7.5889943370E-12
    2.4201783850E+04    1.0917853942E-10
    2.4217864770E+04    4.0530720487E-10
    2.4233945690E+04    2.8222828921E-11
    2.4250026610E+04    1.9702405156E-12
    2.4266107530E+04    1.1526675926E-12
    2.4282188450E+04    1.5687207431E-11
    2.4298269370E+04    2.4100132318E-10
    2.4314350290E+04    1.2260120998E-10
    2.4330431210E+04    7.9996730108E-12
    2.4346512130E+04    6.5399025913E-13
    2.4362593050E+04    1.3070306953E-12
    2.4378673970E+04    7.4048568400E-12
    2.4394754890E+04    4.8225991196E-11
    2.4410835810E+04    8.2962458718E-11
    2.4426916730E+04    1.6414837024E-10
    2.4442997650E+04    3.9578183042E-10
    2.4459078570E+04    3.3705283060E-11
    2.4475159490E+04    2.9169688069E-12
    2.4491240400E+04    8.1838010058E-13
    2.4507321320E+04    1.1151028353E-11
    2.4523402240E+04    1.5203695846E-10
    2.4539483160E+04    3.9055989437E-10
    2.4555564080E+04    6.1056908559E-11
    2.4571645000E+04    1.2320489411E-11
    2.4587725920E+04    1.0768958880E-11
    2.4603806840E+04    4.9503604727E-11
    2.4619887760E+04    3.1277604594E-10
    2.4635968680E+04    1.7870462225E-10
    2.4652049600E+04    1.3851362946E-11
    2.4668130520E+04    1.0832708104E-12
    2.4684211440E+04    1.7780451878E-12
    2.4700292360E+04    2.0375760086E-11
    2.4716373280E+04    2.5954775777E-10
    2.4732454200E+04    4.7584890635E-10
    2.4748535120E+04    4.4942236676E-10
    2.4764616040E+04    4.2476608029E-10
    2.4780696960E+04    1.9834516815E-10
    2.4796777880E+04    9.0142663920E-11
    2.4812858790E+04    4.2926235846E-11
    2.4828939710E+04    8.6290735908E-11
    2.4845020630E+04    2.4254986775E-10
    2.4861101550E+04    1.1062093835E-09
    2.4877182470E+04    1.0994226775E-10
    2.4893263390E+04    7.8142141633E-12
    2.4909344310E+04    5.6579504681E-13
    2.4925425230E+04    6.2939468401E-12
    2.4941506150E+04    8.6340964943E-11
    2.4957587070E+04    2.1590727547E-09
    2.4973667990E+04    2.4976569917E-10
    2.4989748910E+04    2.4107431803E-11
    2.4997781620E+04    2.2052803815E-12
    2.5005829830E+04    2.5220489349E-11
    2.5011293930E+04    3.8490036598E-09
    2.5021910750E+04    2.7541635223E-09
    2.5024806240E+04    3.0509739998E-09
    2.5038318560E+04    4.2713899798E-09
    2.5051830870E+04    3.3801803666E-09
    2.5065343190E+04    5.1713590040E-09
    2.5078855500E+04    1.3602394079E-09
    2.5092367820E+04    1.8925660973E-09
    2.5105880130E+04    5.3839230181E-09
    2.5119392440E+04    5.6467865314E-09
    2.5132904760E+04    5.5438919193E-09
    2.5146417070E+04    3.1256418454E-09
    2.5159929390E+04    2.9895258953E-09
    2.5173441700E+04    1.6432200297E-09
    2.5186954020E+04    3.6144042846E-09
    2.5200466330E+04    3.2731995623E-09
    2.5213978650E+04    1.5114366405E-09
    2.5227490960E+04    1.4831183660E-09
    2.5241003270E+04    6.0550755497E-10
    2.5254515590E+04    1.3653123993E-09
    2.5268027900E+04    8.3940576155E-10
    2.5281540220E+04    1.8267454078E-09
    2.5295052530E+04    3.5105675868E-09
    2.5308564850E+04    1.7002738545E-09
    2.5322077160E+04    8.4144453722E-11
    2.5335589480E+04    3.8736663521E-10
    2.5349101790E+04    1.4048760835E-09
    2.5362614100E+04    2.7600832478E-09
    2.5376126420E+04    1.9653145670E-09
    2.5389638730E+04    7.3101305015E-10
    2.5403151050E+04    5.8673935259E-10
    2.5416663360E+04    2.7696046677E-10
    2.5430175680E+04    4.1596412651E-10
    2.5443687990E+04    2.7286164155E-10
    2.5457200300E+04    4.8356825908E-10
    2.5470712620E+04    4.9998152129E-10
    2.5484224930E+04    1.2844256911E-11
    2.5497737250E+04    1.9151892185E-10
    2.5511249560E+04    4.3586126705E-10
    2.5524761880E+04    6.8679388938E-10
    2.5538274190E+04    3.5902195004E-10
    2.5551786510E+04    2.1787402008E-10
    2.5565298820E+04    3.5209812602E-10
    2.5578811130E+04    8.3475157275E-11
    2.5592323450E+04    6.2317844226E-11
    2.5605835760E+04    1.0743268240E-10
    2.5619348080E+04    9.6909089749E-11
    2.5632860390E+04    2.6439845647E-10
    2.5646372710E+04    1.5655892235E-10
    2.5659885020E+04    1.6126893580E-10
    2.5673397330E+04    1.1841158305E-10
    2.5686909650E+04    6.5190024335E-11
    2.5700421960E+04    4.6506947921E-11
    2.5713934280E+04    4.3450816553E-11
    2.5727446590E+04    4.1842987160E-11
    2.5740958910E+04    1.4261967108E-10
    2.5754471220E+04    8.8020691193E-11
    2.5767983540E+04    3.8138833038E-11
    2.5781495850E+04    2.9741462418E-11
    2.5795008160E+04    3.1199329945E-11
    2.5808520480E+04    3.6318412874E-11
    2.5822032790E+04    3.2959072565E-11
    2.5835545110E+04    3.7496444915E-11
    2.5849057420E+04    1.7909520956E-11
    2.5862569740E+04    2.0032032442E-11
    2.5876082050E+04    2.1789381481E-11
    2.5889594370E+04    1.9260516453E-11
    2.5903106680E+04    1.6183591969E-11
    2.5916618990E+04    1.6077904697E-11
    2.5930131310E+04    1.6345483762E-12
    2.5943643620E+04    1.3990611607E-11
    2.5957155940E+04    4.7450129292E-13
    2.5970668250E+04    1.1905616556E-11
    2.5984180570E+04    1.4891245403E-11
    2.5997692880E+04    1.1298203759E-11
    2.6011205190E+04    1.1366459496E-11
    2.6024717510E+04    5.4974683317E-14
    2.6038229820E+04    6.0671008393E-12
    2.6051742140E+04    2.5411440835E-11
    2.6065254450E+04    1.7353270164E-11
    2.6078766770E+04    1.4521477219E-11
    2.6092279080E+04    3.2251683168E-11
    2.6105791400E+04    5.2890968605E-11
    2.6119303710E+04    1.2794592715E-11
    2.6132816020E+04    1.3546843266E-11
    2.6146328340E+04    3.2441308668E-11
    2.6159840650E+04    1.7230662939E-11
    2.6173352970E+04    2.0996876787E-11
    2.6186865280E+04    9.7179296200E-12
    2.6200377600E+04    6.3611508213E-14
    2.6213889910E+04    8.8005090168E-15
    2.6227402220E+04    2.4592153658E-12
    2.6240914540E+04    2.7211372829E-12
    2.6254426850E+04    3.6618252537E-12
    2.6267939170E+04    4.7450834651E-12
    2.6281451480E+04    7.4645019165E-14
    2.6294963800E+04    3.1323038945E-13
    2.6308476110E+04    7.7340507239E-12
    2.6321988430E+04    5.5264559490E-14
    2.6335500740E+04    7.5280430995E-12
    2.6349013050E+04    1.6604545710E-11
    2.6362525370E+04    2.6539095735E-11
    2.6376037680E+04    1.1655769542E-11
    2.6389550000E+04    2.9180529381E-11
    2.6403062310E+04    3.8203938421E-11
    2.6416574630E+04    2.3623002912E-11
    2.6430086940E+04    9.9166087118E-12
    2.6443599250E+04    2.2904836161E-11
    2.6457111570E+04    8.2145247118E-12
    2.6470623880E+04    8.9110977055E-12
    2.6484136200E+04    8.1630624716E-13
    2.6497648510E+04    3.0751340085E-12
    2.6511160830E+04    3.0844374240E-12
    2.6524673140E+04    1.2565755221E-11
    2.6538185460E+04    1.0304720988E-11
    2.6551697770E+04    1.1105405816E-11
    2.6565210080E+04    1.0870937508E-11
    2.6578722400E+04    6.6332545834E-12
    2.6592234710E+04    6.7161530511E-13
    2.6605747030E+04    5.6847602179E-12
    2.6619259340E+04    1.2926538460E-11
    2.6632771660E+04    2.7517951852E-11
    2.6646283970E+04    1.7868954603E-11
    2.6659796290E+04    1.6055704543E-11
    2.6673308600E+04    1.7817609090E-13
    2.6686820910E+04    7.0644386212E-12
    2.6700333230E+04    1.3185269471E-11
    2.6713845540E+04    9.9869496011E-12
    2.6727357860E+04    1.4004733751E-11
    2.6740870170E+04    6.3497120923E-12
    2.6754382490E+04    5.5285559281E-12
    2.6767894800E+04    6.0318204871E-12
    2.6781407110E+04    9.6072140559E-12
    2.6794919430E+04    1.0442593434E-11
    2.6808431740E+04    8.6706511172E-12
    2.6821944060E+04    5.6533735328E-12
    2.6835456370E+04    1.0849824537E-12
    2.6848968690E+04    1.2088068089E-12
    2.6862481000E+04    5.9110577381E-12
    2.6875993320E+04    5.6587632287E-12
    2.6889505630E+04    3.1187513488E-12
    2.6903017940E+04    5.2682865440E-12
    2.6916530260E+04    1.4962890960E-13
    2.6930042570E+04    1.2153594548E-12
    2.6943554890E+04    1.8857156886E-12
    2.6957067200E+04    9.0200221724E-13
    2.6970579520E+04    2.2509032627E-12
    2.6984091830E+04    1.8828436140E-12
    2.6997604140E+04    3.1669227864E-12
    2.7011116460E+04    1.8878853317E-12
    2.7024628770E+04    3.7444751761E-12
    2.7038141090E+04    6.5495894841E-12
    2.7051653400E+04    3.0300253637E-12
    2.7065165720E+04    2.1170556730E-14
    2.7078678030E+04    2.0502422192E-13
    2.7092190350E+04    3.8274355041E-12
    2.7105702660E+04    4.2066581319E-12
    2.7119214970E+04    4.4941246539E-12
    2.7132727290E+04    4.4724606935E-13
    2.7146239600E+04    7.1831097732E-15
    2.7159751920E+04    1.2120255393E-14
    2.7173264230E+04    5.5937549676E-12
    2.7186776550E+04    7.2765578808E-13
    2.7200288860E+04    8.6092965446E-14
    2.7213801170E+04    3.9190696845E-12
    2.7227313490E+04    1.5899770031E-12
    2.7240825800E+04    5.7847497643E-12
    2.7254338120E+04    1.0069188716E-12
    2.7267850430E+04    4.1061139777E-14
    2.7281362750E+04    2.2780466515E-12
    2.7294875060E+04    1.1895948274E-12
    2.7308387380E+04    4.3517128316E-12
    2.7321899690E+04    1.2748731942E-12
