###   Wavelength (A)        Transmission
    2.0004663860E+04    2.2689226883E-10
    2.0020744780E+04    2.0455650125E-10
    2.0036825700E+04    1.8545825611E-10
    2.0052906620E+04    1.6926471570E-10
    2.0068987540E+04    1.5521009547E-10
    2.0085068460E+04    1.4392680223E-10
    2.0101149380E+04    1.3433537369E-10
    2.0117230300E+04    1.2575420597E-10
    2.0133311220E+04    1.1914068419E-10
    2.0149392140E+04    1.1375417473E-10
    2.0165473060E+04    1.0737860669E-10
    2.0181553980E+04    1.0271631223E-10
    2.0197634900E+04    9.7343987576E-11
    2.0213715820E+04    9.3524571277E-11
    2.0229796740E+04    8.9941141709E-11
    2.0245877660E+04    8.5431933876E-11
    2.0261958580E+04    8.2476694346E-11
    2.0278039490E+04    7.9866370382E-11
    2.0294120410E+04    7.7485912277E-11
    2.0310201330E+04    7.5417814362E-11
    2.0326282250E+04    7.3731639794E-11
    2.0342363170E+04    7.1445017274E-11
    2.0358444090E+04    7.0394388200E-11
    2.0374525010E+04    6.9657676389E-11
    2.0390605930E+04    6.9338776753E-11
    2.0406686850E+04    6.9974087244E-11
    2.0422767770E+04    7.0132807588E-11
    2.0438848690E+04    7.0553780921E-11
    2.0454929610E+04    7.1237989271E-11
    2.0471010530E+04    7.2118477649E-11
    2.0487091450E+04    7.3764296842E-11
    2.0503172370E+04    7.5491852585E-11
    2.0519253290E+04    7.7294759760E-11
    2.0535334210E+04    8.0389767632E-11
    2.0551415130E+04    8.3232488428E-11
    2.0567496050E+04    8.7212244919E-11
    2.0583576970E+04    9.1290114825E-11
    2.0599657880E+04    9.6532749882E-11
    2.0615738800E+04    1.0225305436E-10
    2.0631819720E+04    1.0843804417E-10
    2.0647900640E+04    1.1548436048E-10
    2.0663981560E+04    1.2347055880E-10
    2.0680062480E+04    1.3227469100E-10
    2.0696143400E+04    1.4185430545E-10
    2.0712224320E+04    1.5274302656E-10
    2.0728305240E+04    1.6662334601E-10
    2.0744386160E+04    1.8112906521E-10
    2.0760467080E+04    1.9920507880E-10
    2.0776548000E+04    2.1904196360E-10
    2.0792628920E+04    2.4371936505E-10
    2.0808709840E+04    2.7223967242E-10
    2.0824790760E+04    3.0365360576E-10
    2.0840871680E+04    3.4192700923E-10
    2.0856952600E+04    3.8642251521E-10
    2.0873033520E+04    4.3824120763E-10
    2.0889114440E+04    4.9857065480E-10
    2.0905195360E+04    5.7030358387E-10
    2.0921276270E+04    6.5461841918E-10
    2.0937357190E+04    7.5636140692E-10
    2.0953438110E+04    8.8236859886E-10
    2.0969519030E+04    1.0259628886E-09
    2.0985599950E+04    1.1979245265E-09
    2.1001680870E+04    1.4058400736E-09
    2.1017761790E+04    1.6404773310E-09
    2.1033842710E+04    1.9183869624E-09
    2.1049923630E+04    2.2324849983E-09
    2.1066004550E+04    2.5649594300E-09
    2.1082085470E+04    2.9275976632E-09
    2.1098166390E+04    3.2947787031E-09
    2.1114247310E+04    3.6523973326E-09
    2.1130328230E+04    3.9710077005E-09
    2.1146409150E+04    4.2179505873E-09
    2.1162490070E+04    4.4156048387E-09
    2.1178570990E+04    4.5063434697E-09
    2.1194651910E+04    4.5289724375E-09
    2.1210732830E+04    4.4920541681E-09
    2.1226813750E+04    4.4030337731E-09
    2.1242894660E+04    4.2668744690E-09
    2.1258975580E+04    4.1308303678E-09
    2.1275056500E+04    3.9883993331E-09
    2.1291137420E+04    3.8358841116E-09
    2.1307218340E+04    3.6962260424E-09
    2.1323299260E+04    3.5611258463E-09
    2.1339380180E+04    3.4352926776E-09
    2.1355461100E+04    3.3251011484E-09
    2.1371542020E+04    3.2411272406E-09
    2.1387622940E+04    3.1596646287E-09
    2.1403703860E+04    3.0955710058E-09
    2.1419784780E+04    3.0307347323E-09
    2.1435865700E+04    2.9856011567E-09
    2.1451946620E+04    2.9425899289E-09
    2.1468027540E+04    2.9003497837E-09
    2.1484108460E+04    2.8601870990E-09
    2.1500189380E+04    2.8248834785E-09
    2.1516270300E+04    2.7992939048E-09
    2.1532351220E+04    2.7863730612E-09
    2.1548432140E+04    2.7810183396E-09
    2.1564513050E+04    2.7912272180E-09
    2.1580593970E+04    2.8033064420E-09
    2.1596674890E+04    2.8319442982E-09
    2.1612755810E+04    2.8709387614E-09
    2.1628836730E+04    2.9039983362E-09
    2.1644917650E+04    2.9486749037E-09
    2.1660998570E+04    2.9973482025E-09
    2.1677079490E+04    3.0504193724E-09
    2.1693160410E+04    3.1096811773E-09
    2.1709241330E+04    3.1670898973E-09
    2.1725322250E+04    3.2407898974E-09
    2.1741403170E+04    3.3181504422E-09
    2.1757484090E+04    3.4038011866E-09
    2.1773565010E+04    3.4972119893E-09
    2.1789645930E+04    3.6025577882E-09
    2.1805726850E+04    3.7216117654E-09
    2.1821807770E+04    3.8507651546E-09
    2.1837888690E+04    3.9981314030E-09
    2.1853969610E+04    4.1686433634E-09
    2.1870050530E+04    4.3456827139E-09
    2.1886131450E+04    4.5442876244E-09
    2.1902212360E+04    4.7668134806E-09
    2.1918293280E+04    5.0125031003E-09
    2.1934374200E+04    5.2807372947E-09
    2.1950455120E+04    5.5759860776E-09
    2.1966536040E+04    5.9154620432E-09
    2.1982616960E+04    6.2979399621E-09
    2.1998697880E+04    6.7363574662E-09
    2.2014778800E+04    7.2669137526E-09
    2.2030859720E+04    7.8681989847E-09
    2.2046940640E+04    8.5668383542E-09
    2.2063021560E+04    9.3827658204E-09
    2.2079102480E+04    1.0345424013E-08
    2.2095183400E+04    1.1514693648E-08
    2.2111264320E+04    1.2908128153E-08
    2.2127345240E+04    1.4606108898E-08
    2.2143426160E+04    1.6718166982E-08
    2.2159507080E+04    1.9289162756E-08
    2.2175588000E+04    2.2556177580E-08
    2.2191668920E+04    2.6589699581E-08
    2.2207749840E+04    3.1554166456E-08
    2.2223830750E+04    3.7472886830E-08
    2.2239911670E+04    4.3978240836E-08
    2.2255992590E+04    5.0128905110E-08
    2.2272073510E+04    5.5239218776E-08
    2.2288154430E+04    5.8749214691E-08
    2.2304235350E+04    6.1024833937E-08
    2.2320316270E+04    6.2689226998E-08
    2.2336397190E+04    6.4439340222E-08
    2.2352478110E+04    6.6840245872E-08
    2.2368559030E+04    7.0207148316E-08
    2.2384639950E+04    7.4770823103E-08
    2.2400720870E+04    8.0616411524E-08
    2.2416801790E+04    8.8337438414E-08
    2.2432882710E+04    9.7811073273E-08
    2.2448963630E+04    1.0964293963E-07
    2.2465044550E+04    1.2405099709E-07
    2.2481125470E+04    1.4118636593E-07
    2.2497206390E+04    1.6170227260E-07
    2.2513287310E+04    1.8573602833E-07
    2.2529368230E+04    2.1281080296E-07
    2.2545449140E+04    2.4327840551E-07
    2.2561530060E+04    2.7641173061E-07
    2.2577610980E+04    3.1214894427E-07
    2.2593691900E+04    3.4958712615E-07
    2.2609772820E+04    3.8880496767E-07
    2.2625853740E+04    4.2844271338E-07
    2.2641934660E+04    4.6812449362E-07
    2.2658015580E+04    5.0707525035E-07
    2.2674096500E+04    5.4371636945E-07
    2.2690177420E+04    5.7831044259E-07
    2.2706258340E+04    6.1059024480E-07
    2.2722339260E+04    6.3968588999E-07
    2.2738420180E+04    6.6729008066E-07
    2.2754501100E+04    6.9343475118E-07
    2.2770582020E+04    7.1927432177E-07
    2.2786662940E+04    7.4484196683E-07
    2.2802743860E+04    7.7214956410E-07
    2.2818824780E+04    8.0308564142E-07
    2.2834905700E+04    8.3732128362E-07
    2.2850986620E+04    8.7600851300E-07
    2.2867067530E+04    9.2030117029E-07
    2.2883148450E+04    9.6912139391E-07
    2.2899229370E+04    1.0254679451E-06
    2.2915310290E+04    1.0901336698E-06
    2.2931391210E+04    1.1643615525E-06
    2.2947472130E+04    1.2516863201E-06
    2.2963553050E+04    1.3547276297E-06
    2.2979633970E+04    1.4747775080E-06
    2.2995714890E+04    1.6182854923E-06
    2.3011795810E+04    1.7825349537E-06
    2.3027876730E+04    1.9773949395E-06
    2.3043957650E+04    2.2079596368E-06
    2.3060038570E+04    2.4825532304E-06
    2.3076119490E+04    2.8124735213E-06
    2.3092200410E+04    3.2043768956E-06
    2.3108281330E+04    3.6814000822E-06
    2.3124362250E+04    4.2649290322E-06
    2.3140443170E+04    4.9716706611E-06
    2.3156524090E+04    5.8604907613E-06
    2.3172605010E+04    6.9561475793E-06
    2.3188685920E+04    8.2812093839E-06
    2.3204766840E+04    9.8753715046E-06
    2.3220847760E+04    1.1713244934E-05
    2.3236928680E+04    1.3783841400E-05
    2.3253009600E+04    1.5996733929E-05
    2.3269090520E+04    1.8327940001E-05
    2.3285171440E+04    2.0675620327E-05
    2.3301252360E+04    2.3015987584E-05
    2.3317333280E+04    2.5349580090E-05
    2.3333414200E+04    2.7570008705E-05
    2.3349495120E+04    2.9655388763E-05
    2.3365576040E+04    3.1442291717E-05
    2.3381656960E+04    3.2924896405E-05
    2.3397737880E+04    3.3962150072E-05
    2.3413818800E+04    3.4625021023E-05
    2.3429899720E+04    3.4966383165E-05
    2.3445980640E+04    3.5059627461E-05
    2.3462061560E+04    3.5065466079E-05
    2.3478142480E+04    3.5070110073E-05
    2.3494223400E+04    3.5149336746E-05
    2.3510304310E+04    3.5359070749E-05
    2.3526385230E+04    3.5712209718E-05
    2.3542466150E+04    3.6301755412E-05
    2.3558547070E+04    3.7074793078E-05
    2.3574627990E+04    3.8046929971E-05
    2.3590708910E+04    3.9095925358E-05
    2.3606789830E+04    4.0332751431E-05
    2.3622870750E+04    4.1561678471E-05
    2.3638951670E+04    4.2816891480E-05
    2.3655032590E+04    4.4006106621E-05
    2.3671113510E+04    4.5136209010E-05
    2.3687194430E+04    4.6179615508E-05
    2.3703275350E+04    4.7046136240E-05
    2.3719356270E+04    4.7714004067E-05
    2.3735437190E+04    4.8188291005E-05
    2.3751518110E+04    4.8433834873E-05
    2.3767599030E+04    4.8434326261E-05
    2.3783679950E+04    4.8239525082E-05
    2.3799760870E+04    4.7867952036E-05
    2.3815841790E+04    4.7401925034E-05
    2.3831922710E+04    4.6813663453E-05
    2.3848003620E+04    4.6196291300E-05
    2.3864084540E+04    4.5573961234E-05
    2.3880165460E+04    4.5066330313E-05
    2.3896246380E+04    4.4580913080E-05
    2.3912327300E+04    4.4182263533E-05
    2.3928408220E+04    4.3869352819E-05
    2.3944489140E+04    4.3664303211E-05
    2.3960570060E+04    4.3538440524E-05
    2.3976650980E+04    4.3471694436E-05
    2.3992731900E+04    4.3486997339E-05
    2.4008812820E+04    4.3554530142E-05
    2.4024893740E+04    4.3670385865E-05
    2.4040974660E+04    4.3834714221E-05
    2.4057055580E+04    4.4016752131E-05
    2.4073136500E+04    4.4204448371E-05
    2.4089217420E+04    4.4382634058E-05
    2.4105298340E+04    4.4591488076E-05
    2.4121379260E+04    4.4827970047E-05
    2.4137460180E+04    4.5074882286E-05
    2.4153541100E+04    4.5295089790E-05
    2.4169622010E+04    4.5486271989E-05
    2.4185702930E+04    4.5626204681E-05
    2.4201783850E+04    4.5651796947E-05
    2.4217864770E+04    4.5607457740E-05
    2.4233945690E+04    4.5385284932E-05
    2.4250026610E+04    4.5029960487E-05
    2.4266107530E+04    4.4566387203E-05
    2.4282188450E+04    4.4104208193E-05
    2.4298269370E+04    4.3663503423E-05
    2.4314350290E+04    4.3312052891E-05
    2.4330431210E+04    4.3135313592E-05
    2.4346512130E+04    4.3131643195E-05
    2.4362593050E+04    4.3260872461E-05
    2.4378673970E+04    4.3468557596E-05
    2.4394754890E+04    4.3755561004E-05
    2.4410835810E+04    4.4049762975E-05
    2.4426916730E+04    4.4321411348E-05
    2.4442997650E+04    4.4570685363E-05
    2.4459078570E+04    4.4766656026E-05
    2.4475159490E+04    4.4855848714E-05
    2.4491240400E+04    4.4869212565E-05
    2.4507321320E+04    4.4855245687E-05
    2.4523402240E+04    4.4779112203E-05
    2.4539483160E+04    4.4643587377E-05
    2.4555564080E+04    4.4527066655E-05
    2.4571645000E+04    4.4478991478E-05
    2.4587725920E+04    4.4515376076E-05
    2.4603806840E+04    4.4658345983E-05
    2.4619887760E+04    4.4901711156E-05
    2.4635968680E+04    4.5260650624E-05
    2.4652049600E+04    4.5672220547E-05
    2.4668130520E+04    4.6112942898E-05
    2.4684211440E+04    4.6516820943E-05
    2.4700292360E+04    4.6883178895E-05
    2.4716373280E+04    4.7229212105E-05
    2.4732454200E+04    4.7563812486E-05
    2.4748535120E+04    4.7955934153E-05
    2.4764616040E+04    4.8344092619E-05
    2.4780696960E+04    4.8843867653E-05
    2.4796777880E+04    4.9342567502E-05
    2.4812858790E+04    4.9809218621E-05
    2.4828939710E+04    5.0185858421E-05
    2.4845020630E+04    5.0514509808E-05
    2.4861101550E+04    5.0752950305E-05
    2.4877182470E+04    5.0846485607E-05
    2.4893263390E+04    5.0902831853E-05
    2.4909344310E+04    5.0919236436E-05
    2.4925425230E+04    5.1034758357E-05
    2.4941506150E+04    5.1211598613E-05
    2.4957587070E+04    9.3914842020E-05
    2.4973667990E+04    1.3624986520E-04
    2.4989748910E+04    1.7797946170E-04
    2.4997781620E+04    2.1942636733E-04
    2.5011293930E+04    2.5951244359E-04
    2.5024806240E+04    2.9921521447E-04
    2.5038318560E+04    3.3759142455E-04
    2.5051830870E+04    3.7445045066E-04
    2.5065343190E+04    3.6792044632E-04
    2.5078855500E+04    3.6065888142E-04
    2.5092367820E+04    3.5298773937E-04
    2.5105880130E+04    3.4381324979E-04
    2.5119392440E+04    3.3497594049E-04
    2.5132904760E+04    3.2460385380E-04
    2.5146417070E+04    3.1405996771E-04
    2.5159929390E+04    3.0402650668E-04
    2.5173441700E+04    2.9339606409E-04
    2.5186954020E+04    2.8209455383E-04
    2.5200466330E+04    2.7061061773E-04
    2.5213978650E+04    2.5979218752E-04
    2.5227490960E+04    2.4814684333E-04
    2.5241003270E+04    2.3682971040E-04
    2.5254515590E+04    2.2541583341E-04
    2.5268027900E+04    2.1336002400E-04
    2.5281540220E+04    2.0200400269E-04
    2.5295052530E+04    1.9093538819E-04
    2.5308564850E+04    1.7972124799E-04
    2.5322077160E+04    1.6831225650E-04
    2.5335589480E+04    1.5749304132E-04
    2.5349101790E+04    1.4658342667E-04
    2.5362614100E+04    1.3615714559E-04
    2.5376126420E+04    1.2579686654E-04
    2.5389638730E+04    1.1558495837E-04
    2.5403151050E+04    1.0589335069E-04
    2.5416663360E+04    9.7160076316E-05
    2.5430175680E+04    8.8691602185E-05
    2.5443687990E+04    8.0196046413E-05
    2.5457200300E+04    7.2111917232E-05
    2.5470712620E+04    6.5209067846E-05
    2.5484224930E+04    5.9379573311E-05
    2.5497737250E+04    5.3022674426E-05
    2.5511249560E+04    4.7203756789E-05
    2.5524761880E+04    4.1111164792E-05
    2.5538274190E+04    3.6285619973E-05
    2.5551786510E+04    3.2487534632E-05
    2.5565298820E+04    2.9387056391E-05
    2.5578811130E+04    2.4816219674E-05
    2.5592323450E+04    2.0663295834E-05
    2.5605835760E+04    1.8375123404E-05
    2.5619348080E+04    1.6397381448E-05
    2.5632860390E+04    1.4828308914E-05
    2.5646372710E+04    1.3345984076E-05
    2.5659885020E+04    1.1584609826E-05
    2.5673397330E+04    9.9696583372E-06
    2.5686909650E+04    9.7383559950E-06
    2.5700421960E+04    9.2641183587E-06
    2.5713934280E+04    7.8957993041E-06
    2.5727446590E+04    6.9922793088E-06
    2.5740958910E+04    6.0631648698E-06
    2.5754471220E+04    4.9478002780E-06
    2.5767983540E+04    4.2040016874E-06
    2.5781495850E+04    4.0329950896E-06
    2.5795008160E+04    3.3998500213E-06
    2.5808520480E+04    3.2252340037E-06
    2.5822032790E+04    3.4408505783E-06
    2.5835545110E+04    2.9141697046E-06
    2.5849057420E+04    2.6243736802E-06
    2.5862569740E+04    2.5617638068E-06
    2.5876082050E+04    2.5558639897E-06
    2.5889594370E+04    2.0535668533E-06
    2.5903106680E+04    2.2444074040E-06
    2.5916618990E+04    2.2178061016E-06
    2.5930131310E+04    1.8256479946E-06
    2.5943643620E+04    1.9012006278E-06
    2.5957155940E+04    1.8621303997E-06
    2.5970668250E+04    1.6559474626E-06
    2.5984180570E+04    1.4558315697E-06
    2.5997692880E+04    1.4674783515E-06
    2.6011205190E+04    1.4667809360E-06
    2.6024717510E+04    1.2612198508E-06
    2.6038229820E+04    1.5264232024E-06
    2.6051742140E+04    1.9959323816E-06
    2.6065254450E+04    2.2340629844E-06
    2.6078766770E+04    2.3090303608E-06
    2.6092279080E+04    2.6470548753E-06
    2.6105791400E+04    3.0808238178E-06
    2.6119303710E+04    2.7760486438E-06
    2.6132816020E+04    2.5815115756E-06
    2.6146328340E+04    2.5824120183E-06
    2.6159840650E+04    2.1216710980E-06
    2.6173352970E+04    1.8967350793E-06
    2.6186865280E+04    1.7488765597E-06
    2.6200377600E+04    1.3348182136E-06
    2.6213889910E+04    8.8005090168E-07
    2.6227402220E+04    8.7197434544E-07
    2.6240914540E+04    8.5868470210E-07
    2.6254426850E+04    5.2578066204E-07
    2.6267939170E+04    8.4271802963E-07
    2.6281451480E+04    1.0999792182E-06
    2.6294963800E+04    1.3387877951E-06
    2.6308476110E+04    1.7418632720E-06
    2.6321988430E+04    2.1131771925E-06
    2.6335500740E+04    2.5008641729E-06
    2.6349013050E+04    2.8847234864E-06
    2.6362525370E+04    2.9201843366E-06
    2.6376037680E+04    2.5250483134E-06
    2.6389550000E+04    2.5870323255E-06
    2.6403062310E+04    2.6545677722E-06
    2.6416574630E+04    2.2358446885E-06
    2.6430086940E+04    1.7953898791E-06
    2.6443599250E+04    1.5786386912E-06
    2.6457111570E+04    1.1980771931E-06
    2.6470623880E+04    1.2212497385E-06
    2.6484136200E+04    1.4196117886E-06
    2.6497648510E+04    1.1012001471E-06
    2.6511160830E+04    9.2705422875E-07
    2.6524673140E+04    9.5630021287E-07
    2.6538185460E+04    1.0832267714E-06
    2.6551697770E+04    1.2060574208E-06
    2.6565210080E+04    1.3599278271E-06
    2.6578722400E+04    1.6520045947E-06
    2.6592234710E+04    1.6521139371E-06
    2.6605747030E+04    1.9007480212E-06
    2.6619259340E+04    2.0866309374E-06
    2.6632771660E+04    2.6162994210E-06
    2.6646283970E+04    2.6713983752E-06
    2.6659796290E+04    2.2552584056E-06
    2.6673308600E+04    2.1227213992E-06
    2.6686820910E+04    1.7548583230E-06
    2.6700333230E+04    1.4622852091E-06
    2.6713845540E+04    1.2597419344E-06
    2.6727357860E+04    1.4826901858E-06
    2.6740870170E+04    9.2914688707E-07
    2.6754382490E+04    7.1793669405E-07
    2.6767894800E+04    7.1768282932E-07
    2.6781407110E+04    7.6425588210E-07
    2.6794919430E+04    9.1373202915E-07
    2.6808431740E+04    1.2309915058E-06
    2.6821944060E+04    1.1676884190E-06
    2.6835456370E+04    6.0200255683E-07
    2.6848968690E+04    5.7818933747E-07
    2.6862481000E+04    6.1336286568E-07
    2.6875993320E+04    6.1389585092E-07
    2.6889505630E+04    6.0347450715E-07
    2.6903017940E+04    4.9709981023E-07
    2.6916530260E+04    1.7223151012E-07
    2.6930042570E+04    1.8138946292E-07
    2.6943554890E+04    1.8140597747E-07
    2.6957067200E+04    1.6453655868E-07
    2.6970579520E+04    4.4303776940E-07
    2.6984091830E+04    4.8022117113E-07
    2.6997604140E+04    4.2152691566E-07
    2.7011116460E+04    4.1190569844E-07
    2.7024628770E+04    7.1750437909E-07
    2.7038141090E+04    1.3003913297E-06
    2.7051653400E+04    1.3592419677E-06
    2.7065165720E+04    1.3645787203E-06
    2.7078678030E+04    1.3423369812E-06
    2.7092190350E+04    1.5153129994E-06
    2.7105702660E+04    1.5171758906E-06
    2.7119214970E+04    1.5791656810E-06
    2.7132727290E+04    1.2683536146E-06
    2.7146239600E+04    7.1831097732E-07
    2.7159751920E+04    6.6103126279E-07
    2.7173264230E+04    8.1205211419E-07
    2.7186776550E+04    6.2600348606E-07
    2.7200288860E+04    6.0395779481E-07
    2.7213801170E+04    7.3151404610E-07
    2.7227313490E+04    6.2828311932E-07
    2.7240825800E+04    6.2801043721E-07
    2.7254338120E+04    7.5193193742E-07
    2.7267850430E+04    8.9034591409E-07
    2.7281362750E+04    7.3419552721E-07
    2.7294875060E+04    7.1159443165E-07
    2.7308387380E+04    5.2478930708E-07
    2.7321899690E+04    4.0015866314E-07
    2.7335412000E+04    4.3075166483E-07
    2.7348924320E+04    7.4954591171E-07
